mass, radius, density
2.8164057406162e+30 2.2092704525292e+11 3.1021467344996e-01
5.5712458998636e+30 2.3487996191255e+11 3.0317464563716e-01
8.2799076525927e+30 2.4727356616497e+11 3.0166852764305e-01
1.0971723570072e+31 2.5841581806583e+11 3.0254901794344e-01
1.3839696558515e+31 2.6887651083387e+11 3.0584674031952e-01
1.6505365719482e+31 2.7845976187888e+11 3.0923576345955e-01
1.9198184998384e+31 2.8712326208799e+11 3.0646447944008e-01
2.1886914313056e+31 2.9545066111785e+11 2.9985930313210e-01
2.4542355266845e+31 3.0341109572128e+11 2.9627892332038e-01
2.7189323862576e+31 3.1096225506346e+11 2.9614750681808e-01
3.0082219374512e+31 3.1852071588062e+11 2.9232681670625e-01
3.2741243416781e+31 3.2587834981415e+11 2.8653505388967e-01
3.5352377415082e+31 3.3262050978183e+11 2.8756993857313e-01
3.7947041903321e+31 3.3893427717207e+11 2.9480073607918e-01
4.0542606076345e+31 3.4484794719069e+11 3.0308124644314e-01
4.3358862234586e+31 3.5066459768887e+11 3.0875565366443e-01
4.6011035524333e+31 3.5631975233638e+11 3.0739823221913e-01
4.8718772533020e+31 3.6180969517072e+11 2.9538760807127e-01
5.1683541062106e+31 3.6797616239073e+11 2.5771671200165e-01
5.4783780271698e+31 3.7548956973738e+11 2.1167354538491e-01
5.7419650863596e+31 3.8329474939031e+11 1.9439835088813e-01
6.0057938849013e+31 3.9051399026387e+11 1.9405140729237e-01
6.2835550582096e+31 3.9759608026762e+11 1.9776745718293e-01
6.5404656327086e+31 4.0416386889043e+11 2.0633232390367e-01
6.8001650868930e+31 4.1008258293919e+11 2.1291502157415e-01
7.0826974502384e+31 4.1598958696824e+11 2.1502261603128e-01
7.3450270646758e+31 4.2174350164587e+11 2.1473439526602e-01
7.6033768373196e+31 4.2707006292323e+11 2.1728485623054e-01
7.8867976972176e+31 4.3241673916277e+11 2.1907515928060e-01
8.1648427769599e+31 4.3796866555464e+11 2.0605060918509e-01
8.4509134678813e+31 4.4398909090903e+11 1.7924163253552e-01
8.7510495055930e+31 4.5098381748316e+11 1.5560368884037e-01
9.0164837130893e+31 4.5822068149214e+11 1.4522507242604e-01
9.2765921435120e+31 4.6498868347899e+11 1.4485022251986e-01
9.5542071513379e+31 4.7163362584881e+11 1.4865512360290e-01
9.8121566228368e+31 4.7790129725384e+11 1.5351788402748e-01
1.0090899959921e+32 4.8383447216793e+11 1.5760920417082e-01
1.0347710484572e+32 4.8946814323003e+11 1.6230916455134e-01
1.0624755125098e+32 4.9477779431178e+11 1.6789410262023e-01
1.0882134437103e+32 4.9982833988818e+11 1.7306005478089e-01
1.1136172868589e+32 5.0439975768935e+11 1.8035520756897e-01
1.1408958001817e+32 5.0879936599090e+11 1.9085175110174e-01
1.1672753724025e+32 5.1304944644325e+11 1.9420350230036e-01
1.1979577934882e+32 5.1767460284825e+11 1.7712663300272e-01
1.2260933844995e+32 5.2294773260640e+11 1.5154059697380e-01
1.2546693602467e+32 5.2858313359475e+11 1.3869138493858e-01
1.2809847001327e+32 5.3422168274385e+11 1.3565936653379e-01
1.3086461283760e+32 5.3968442812140e+11 1.3699482556628e-01
1.3365615919014e+32 5.4510591586190e+11 1.4036009352671e-01
1.3622465317007e+32 5.5012072910679e+11 1.4359700815967e-01
1.3897096335624e+32 5.5485146327679e+11 1.4919205348029e-01
1.4161040483902e+32 5.5945714116052e+11 1.5069304340685e-01
1.4438149752867e+32 5.6398263762172e+11 1.5078519096603e-01
1.4695451673974e+32 5.6833101427754e+11 1.5465143131760e-01
1.4986524339008e+32 5.7271603287093e+11 1.5117996188412e-01
1.5268398016717e+32 5.7736836903168e+11 1.4521698986918e-01
1.5524263614599e+32 5.8172855372307e+11 1.4722438881762e-01
1.5802081919703e+32 5.8590039009790e+11 1.5128898275202e-01
1.6060816296192e+32 5.8995382788434e+11 1.5365599914532e-01
1.6345868795769e+32 5.9399208927635e+11 1.5211265526420e-01
1.6627475803332e+32 5.9820630050543e+11 1.4903471160983e-01
1.6887681526170e+32 6.0223051120371e+11 1.4842539369473e-01
1.7169554168121e+32 6.0622067148629e+11 1.4765014556096e-01
1.7447376760017e+32 6.1029042332769e+11 1.4818376579522e-01
1.7704308953703e+32 6.1408433052083e+11 1.5136183024570e-01
1.7984671840755e+32 6.1778416043651e+11 1.5312544032033e-01
1.8261876581843e+32 6.2153901216789e+11 1.5465954805326e-01
1.8536770746656e+32 6.2514239467424e+11 1.5926315263075e-01
1.8798702608693e+32 6.2853817437543e+11 1.6100852237639e-01
1.9080746345776e+32 6.3194794658373e+11 1.5864164713341e-01
1.9361017295005e+32 6.3547416594540e+11 1.5735758457937e-01
1.9640884208643e+32 6.3896332537278e+11 1.5727002736951e-01
1.9900647393791e+32 6.4228941290137e+11 1.5739022738899e-01
2.0179554855067e+32 6.4556634451143e+11 1.5802006487431e-01
2.0459122621857e+32 6.4891516749161e+11 1.5877751503333e-01
2.0738188976524e+32 6.5221623663448e+11 1.5942021498315e-01
2.0998143458087e+32 6.5536099341873e+11 1.5975831556483e-01
2.1277649805057e+32 6.5847328321408e+11 1.5982058133390e-01
2.1557028901945e+32 6.6166268341443e+11 1.6024389366267e-01
2.1837741925318e+32 6.6482698002489e+11 1.5995935076433e-01
2.2117421705747e+32 6.6797060596501e+11 1.5948141288482e-01
2.2399267149250e+32 6.7110673572646e+11 1.5836451004744e-01
2.2679476032284e+32 6.7424164993038e+11 1.5694669369111e-01
2.2940116142490e+32 6.7725255288920e+11 1.5611725274852e-01
2.3218663566911e+32 6.8023425747693e+11 1.5619794732886e-01
2.3497265043709e+32 6.8327550689598e+11 1.5747227431438e-01
2.3775860770259e+32 6.8626641391671e+11 1.5870085601882e-01
2.4056425511435e+32 6.8922936250953e+11 1.5879851347969e-01
2.4336332217904e+32 6.9217914260947e+11 1.5813935626019e-01
2.4616132412819e+32 6.9510828421484e+11 1.5790047447299e-01
2.4897157303891e+32 6.9802894230578e+11 1.5702737370856e-01
2.5178533406507e+32 7.0095776236147e+11 1.5528212049773e-01
2.5459421733334e+32 7.0389340051654e+11 1.5362996721034e-01
2.5740060837066e+32 7.0682831279585e+11 1.5238883587104e-01
2.6021321954023e+32 7.0976659672334e+11 1.5095186206026e-01
2.6302457530038e+32 7.1271356746678e+11 1.4926359791265e-01
2.6582103104611e+32 7.1565250825085e+11 1.4843614855933e-01
2.6861656080199e+32 7.1856742189876e+11 1.4843227344375e-01
2.7142040708825e+32 7.2146663348400e+11 1.4802745910942e-01
2.7422224643381e+32 7.2435712888121e+11 1.4728318184900e-01
2.7701454264173e+32 7.2722753929391e+11 1.4713231915718e-01
2.7982143590550e+32 7.3008353348422e+11 1.4670944272516e-01
2.8262997790666e+32 7.3294195220613e+11 1.4544277740784e-01
2.8541752756242e+32 7.3578342577744e+11 1.4517223749537e-01
2.8822122082969e+32 7.3860356548166e+11 1.4513928441052e-01
2.9121771207476e+32 7.4151143566063e+11 1.4465913874337e-01
2.9402193760192e+32 7.4440725161038e+11 1.4414538314767e-01
2.9683918891988e+32 7.4721246184302e+11 1.4255553655422e-01
2.9964268530084e+32 7.5002701305324e+11 1.4101348622147e-01
3.0245476240130e+32 7.5284585197450e+11 1.3974672054248e-01
3.0527165605826e+32 7.5568241139134e+11 1.3783756972369e-01
3.0828226357899e+32 7.5863569492003e+11 1.3609268071614e-01
3.1107607370456e+32 7.6157983577975e+11 1.3546881140001e-01
3.1385562944338e+32 7.6438365074316e+11 1.3626880367934e-01
3.1665050751246e+32 7.6715190916663e+11 1.3700228382139e-01
3.1945928369675e+32 7.6991431129337e+11 1.3630477775136e-01
3.2245900186236e+32 7.7277359332139e+11 1.3540079673361e-01
3.2527128774222e+32 7.7563422163335e+11 1.3433889618502e-01
3.2808061185905e+32 7.7840793986765e+11 1.3279660219175e-01
3.3107082732371e+32 7.8127042753339e+11 1.3230227284293e-01
3.3388210249696e+32 7.8412491839130e+11 1.3171635900111e-01
3.3669538363671e+32 7.8689607860725e+11 1.3005646391401e-01
3.3947246347112e+32 7.8964927778084e+11 1.2999043550262e-01
3.4249805091844e+32 7.9249298636598e+11 1.2947188381058e-01
3.4531423307845e+32 7.9536638379916e+11 1.2716309385362e-01
3.4830360962977e+32 7.9823614049848e+11 1.2639904265692e-01
3.5110094833009e+32 8.0108430629372e+11 1.2647594577925e-01
3.5391597362715e+32 8.0383789999421e+11 1.2540433558030e-01
3.5692926074478e+32 8.0670943260807e+11 1.2370698745884e-01
3.5973811515173e+32 8.0959289965675e+11 1.2230084921757e-01
3.6275653593668e+32 8.1249423626196e+11 1.2071108064938e-01
3.6555811476762e+32 8.1540499951415e+11 1.1944369050397e-01
3.6836406742545e+32 8.1821436369218e+11 1.1863220125539e-01
3.7138574301905e+32 8.2114295744638e+11 1.1708738547687e-01
3.7419693162502e+32 8.2409373396866e+11 1.1534358825554e-01
3.7718071661510e+32 8.2703022277812e+11 1.1505843229902e-01
3.7998119226234e+32 8.2994299117127e+11 1.1520386422437e-01
3.8299478717367e+32 8.3286070448408e+11 1.1421222290868e-01
3.8580862472227e+32 8.3579640563237e+11 1.1269425669771e-01
3.8881719463382e+32 8.3874636435778e+11 1.1137796588994e-01
3.9178770642269e+32 8.4176691042754e+11 1.1174132372640e-01
3.9400074222263e+32 8.4407095782053e+11 1.5234287393301e-01
3.9662830837944e+32 8.4553915006968e+11 2.2260552546776e-01
3.9914535689512e+32 8.4668854031451e+11 2.8367523119385e-01
4.0195560757784e+32 8.4764520441371e+11 3.3525912499099e-01
4.0499980760725e+32 8.4859033156137e+11 3.4974322265899e-01
4.0788816257011e+32 8.4955145250359e+11 3.3160666516834e-01
4.1092496144801e+32 8.5056199259071e+11 3.1491757952850e-01
4.1393748860752e+32 8.5163030680721e+11 3.0721332558277e-01
4.1673897895946e+32 8.5267398077675e+11 3.0316352624074e-01
4.1974751237850e+32 8.5372794657257e+11 2.9956909809623e-01
4.2277186284848e+32 8.5483657570614e+11 2.9386258188975e-01
4.2557608871528e+32 8.5592465914584e+11 2.8860980337285e-01
4.2853700426261e+32 8.5700638363366e+11 2.8952938393235e-01
4.3154274739088e+32 8.5811976524532e+11 2.9035101422043e-01
4.3455649464519e+32 8.5924684278915e+11 2.8608825743098e-01
4.3754923846573e+32 8.6038279955671e+11 2.8308288736151e-01
4.4034652118872e+32 8.6148349982697e+11 2.8165411521288e-01
4.4335156048747e+32 8.6259170659158e+11 2.7910500221752e-01
4.4633759724786e+32 8.6374113560743e+11 2.7759851118402e-01
4.4935067767349e+32 8.6489679157502e+11 2.7538375188802e-01
4.5238364777050e+32 8.6607679549970e+11 2.6902508462852e-01
4.5537307172741e+32 8.6727190540329e+11 2.6485257162591e-01
4.5833400273665e+32 8.6845381173355e+11 2.6709655362825e-01
4.6112678573678e+32 8.6958485849423e+11 2.6903269466339e-01
4.6411583899619e+32 8.7071544610272e+11 2.6844523921432e-01
4.6707529417078e+32 8.7187169154970e+11 2.7087116490946e-01
4.7006030178073e+32 8.7301305788208e+11 2.7364008375876e-01
4.7307688877005e+32 8.7416163626812e+11 2.7123505618057e-01
4.7603391247651e+32 8.7530654552351e+11 2.7140469662523e-01
4.7900128032620e+32 8.7642917128273e+11 2.7605329785644e-01
4.8200557355408e+32 8.7754769833735e+11 2.7633835993482e-01
4.8493776178625e+32 8.7864908921841e+11 2.8002181381730e-01
4.8802607149444e+32 8.7976345534117e+11 2.7625593130707e-01
4.9096719639890e+32 8.8089364342028e+11 2.7148634078707e-01
4.9395088426323e+32 8.8200190761120e+11 2.7607623422225e-01
4.9694267930556e+32 8.8310774417258e+11 2.7598663042789e-01
5.0011097114128e+32 8.8424251688288e+11 2.7716470544654e-01
5.0312125120653e+32 8.8537653672354e+11 2.7664706795188e-01
5.0612634632333e+32 8.8648637312613e+11 2.7290449385769e-01
5.0907002997964e+32 8.8758382387819e+11 2.7535788408193e-01
5.1207591714844e+32 8.8866911775075e+11 2.7769221941564e-01
5.1505677759900e+32 8.8975624746905e+11 2.7653526144941e-01
5.1827189334660e+32 8.9088480218439e+11 2.7468148764412e-01
5.2130723421830e+32 8.9203790548580e+11 2.6800672702021e-01
5.2424458615260e+32 8.9315024013334e+11 2.6832170490427e-01
5.2727649966210e+32 8.9425726651199e+11 2.6889747087277e-01
5.3049199884571e+32 8.9542597153539e+11 2.6257805687285e-01
5.3351199202697e+32 8.9661424073189e+11 2.5745555526797e-01
5.3650846558089e+32 8.9777737622174e+11 2.5391383350831e-01
5.3949924674820e+32 8.9894234706151e+11 2.5284697150420e-01
5.4268778762974e+32 9.0014506400862e+11 2.5241501238432e-01
5.4564413056968e+32 9.0133329752932e+11 2.5495149142426e-01
5.4878647970516e+32 9.0248869706603e+11 2.6129889337843e-01
5.5176546617038e+32 9.0362252993102e+11 2.6569391360801e-01
5.5472546062657e+32 9.0470405692804e+11 2.6887006541761e-01
5.5790946310869e+32 9.0580786729534e+11 2.7153578671283e-01
5.6090585827772e+32 9.0691158167358e+11 2.7090169682558e-01
5.6408186114888e+32 9.0801237934223e+11 2.7092966888460e-01
5.6706796223535e+32 9.0910685212023e+11 2.7188254926103e-01
5.7025829643123e+32 9.1019968852778e+11 2.7163146242353e-01
5.7324092881810e+32 9.1128974112358e+11 2.7169772114885e-01
5.7642104698932e+32 9.1237330827527e+11 2.7260732887830e-01
5.7941136954576e+32 9.1345356795899e+11 2.7282484683549e-01
5.8260615867838e+32 9.1453543111646e+11 2.7178997729326e-01
5.8578901946796e+32 9.1565127769084e+11 2.7135546369903e-01
5.8875748046885e+32 9.1672209677424e+11 2.7334209849467e-01
5.9192588207572e+32 9.1777741556924e+11 2.7657410067344e-01
5.9490291190282e+32 9.1882136330962e+11 2.7905120889786e-01
5.9809594932072e+32 9.1986160607196e+11 2.7937573572416e-01
6.0129238101731e+32 9.2093871404579e+11 2.7786754925278e-01
6.0446407015716e+32 9.2201192040782e+11 2.7823484347046e-01
6.0741177697365e+32 9.2303147802594e+11 2.8324247065454e-01
6.1056451006642e+32 9.2402406371940e+11 2.9003060931378e-01
6.1375650477615e+32 9.2503801719076e+11 2.9252581541514e-01
6.1696980710326e+32 9.2606039244507e+11 2.8949114552951e-01
6.1998062901660e+32 9.2706490851853e+11 2.8473965920990e-01
6.2311995037986e+32 9.2806024790819e+11 2.8671757044294e-01
6.2632673780227e+32 9.2907741137863e+11 2.8907266503741e-01
6.2956257436949e+32 9.3011496109099e+11 2.8282899330396e-01
6.3277393353095e+32 9.3117450245585e+11 2.7629955717421e-01
6.3597118304830e+32 9.3224371107852e+11 2.7316296056197e-01
6.3895719402990e+32 9.3328054212302e+11 2.7228222505875e-01
6.4213223533973e+32 9.3431105067328e+11 2.7329090300069e-01
6.4531335715805e+32 9.3536735272725e+11 2.7464015947889e-01
6.4847894305748e+32 9.3641297055183e+11 2.7684080129741e-01
6.5165159681871e+32 9.3744521577895e+11 2.7979931620036e-01
6.5481320164278e+32 9.3846307554928e+11 2.8313594462190e-01
6.5796466057001e+32 9.3946012602270e+11 2.8843028292969e-01
6.6116517268059e+32 9.4044878849775e+11 2.9023701521062e-01
6.6440219821407e+32 9.4145580459625e+11 2.8440966662021e-01
6.6760698838071e+32 9.4248261213129e+11 2.7827035895683e-01
6.7079153760057e+32 9.4351279262392e+11 2.7675333825354e-01
6.7395975093908e+32 9.4453461727680e+11 2.7840992690856e-01
6.7713770968237e+32 9.4554608619552e+11 2.8064499124774e-01
6.8052980324161e+32 9.4658652294362e+11 2.8076733192626e-01
6.8371052327370e+32 9.4762519087246e+11 2.8064267818502e-01
6.8687590302333e+32 9.4862207606126e+11 2.8291253190807e-01
6.9003017602056e+32 9.4960074032247e+11 2.8758714206628e-01
6.9319749109661e+32 9.5056213593382e+11 2.9212844876864e-01
6.9636826969664e+32 9.5151163470780e+11 2.9518846882813e-01
6.9971498819730e+32 9.5247302761013e+11 2.9996504953591e-01
7.0287235194253e+32 9.5341387306600e+11 3.0609108444549e-01
7.0604300163470e+32 9.5431185455895e+11 3.1026854888789e-01
7.0920786700824e+32 9.5519823686427e+11 3.1373274785702e-01
7.1257677629875e+32 9.5610038312848e+11 3.1723625606757e-01
7.1575225470703e+32 9.5699413920963e+11 3.1970192082899e-01
7.1890973035069e+32 9.5784893016078e+11 3.2351336603580e-01
7.2228413069901e+32 9.5871846696245e+11 3.2732296865188e-01
7.2547534038663e+32 9.5958554495127e+11 3.2769094177300e-01
7.2865960034726e+32 9.6042617813039e+11 3.2716872328102e-01
7.3200771319939e+32 9.6128175595175e+11 3.3084084461831e-01
7.3516413873806e+32 9.6211950412896e+11 3.3750172011369e-01
7.3835538686264e+32 9.6292438190353e+11 3.3990580299647e-01
7.4173139129109e+32 9.6375252928893e+11 3.4007278931393e-01
7.4489586110428e+32 9.6457218830278e+11 3.4313248662743e-01
7.4827342626318e+32 9.6538329290879e+11 3.4604231464523e-01
7.5144369515323e+32 9.6618791050901e+11 3.4834208873242e-01
7.5480394468426e+32 9.6698148412083e+11 3.5247272218846e-01
7.5797234379345e+32 9.6776437360439e+11 3.5683158549875e-01
7.6134793452830e+32 9.6853975911772e+11 3.5959523300373e-01
7.6451806793353e+32 9.6930859033835e+11 3.6218323038958e-01
7.6787852459962e+32 9.7006703428053e+11 3.6641575247780e-01
7.7105353760025e+32 9.7081695822458e+11 3.7012184888088e-01
7.7445504032267e+32 9.7156727570509e+11 3.6937191615223e-01
7.7782610911588e+32 9.7234004227624e+11 3.6888015847614e-01
7.8096854741318e+32 9.7307646612225e+11 3.7532212218905e-01
7.8434069249873e+32 9.7379899367450e+11 3.8168413167149e-01
7.8752484664403e+32 9.7451794885239e+11 3.8306989081419e-01
7.9087338236389e+32 9.7522795730042e+11 3.8724805226820e-01
7.9418912067146e+32 9.7593642431960e+11 3.9950970576759e-01
7.9734870976725e+32 9.7660389554337e+11 4.1093756536215e-01
8.0075271342427e+32 9.7726907160730e+11 4.1175258975870e-01
8.0416173557323e+32 9.7796259450019e+11 4.0624605162599e-01
8.0751548926172e+32 9.7865415213972e+11 4.0684829164764e-01
8.1066715127168e+32 9.7931182626702e+11 4.1480281093667e-01
8.1405733579071e+32 9.7996284849081e+11 4.1829513403085e-01
8.1741570620797e+32 9.8062897705410e+11 4.2066256625190e-01
8.2080341065625e+32 9.8128999610918e+11 4.2330017085520e-01
8.2415539447045e+32 9.8194478961553e+11 4.2678147617924e-01
8.2735841264174e+32 9.8257706850378e+11 4.2833823904821e-01
8.3072393824691e+32 9.8320879021002e+11 4.2814063010158e-01
8.3409930230870e+32 9.8385391580897e+11 4.3144955967429e-01
8.3746301735153e+32 9.8449291250747e+11 4.3503559738953e-01
8.4081973108802e+32 9.8512233756239e+11 4.4109020110158e-01
8.4420335308585e+32 9.8574596224333e+11 4.4462327156668e-01
8.4756575964075e+32 9.8636493325090e+11 4.4739878252440e-01
8.5092416250417e+32 9.8697476132375e+11 4.5351755527345e-01
8.5428712325655e+32 9.8757567506417e+11 4.5970913413514e-01
8.5764245859291e+32 9.8816724787136e+11 4.6641413868633e-01
8.6100644391794e+32 9.8874984212130e+11 4.7298745296243e-01
8.6436219590570e+32 9.8932371942599e+11 4.7964546774894e-01
8.6778247163307e+32 9.8989841589037e+11 4.7843280588347e-01
8.7113263552491e+32 9.9047298193910e+11 4.7795532644489e-01
8.7449962898176e+32 9.9103850405999e+11 4.8500736957717e-01
8.7783647103816e+32 9.9159298270831e+11 4.9417700854797e-01
8.8122848157414e+32 9.9214061214700e+11 4.9969559471976e-01
8.8459131711804e+32 9.9268578394006e+11 5.0144083414949e-01
8.8795384265611e+32 9.9322374611516e+11 5.0760977799137e-01
8.9131041008557e+32 9.9375361390118e+11 5.1482037537408e-01
8.9468070040730e+32 9.9427673077642e+11 5.2086581398135e-01
8.9802899085731e+32 9.9479198197083e+11 5.2829812674544e-01
9.0155628070295e+32 9.9530808554981e+11 5.4222563143049e-01
9.0491662053828e+32 9.9581258851602e+11 5.5434930334876e-01
9.0834864440590e+32 9.9630585160647e+11 5.5019337828038e-01
9.1173406866649e+32 9.9680602943965e+11 5.4196686104963e-01
9.1504210820693e+32 9.9729499921621e+11 5.5410350848795e-01
9.1863850369602e+32 9.9778849139500e+11 5.6440343620628e-01
9.2198097027760e+32 9.9827769090291e+11 5.6899528573951e-01
9.2539613363918e+32 9.9875102854258e+11 5.7046103720082e-01
9.2877365364403e+32 9.9922761027025e+11 5.6604051884863e-01
9.3226132789142e+32 9.9970366908779e+11 5.8273938111573e-01
9.3565633183512e+32 1.0001683887431e+12 5.9633833574647e-01
9.3895887692214e+32 1.0006103648817e+12 6.0893015868619e-01
9.4252836670104e+32 1.0010523397145e+12 6.2588388677895e-01
9.4587255032598e+32 1.0014875637356e+12 6.3543059835014e-01
9.4924121940470e+32 1.0019032251660e+12 6.4542759765975e-01
9.5281071599379e+32 1.0023275046879e+12 6.5026451266069e-01
9.5615584973195e+32 1.0027454912502e+12 6.5991559212573e-01
9.5972651880743e+32 1.0031569891898e+12 6.6938158637026e-01
9.6308451797366e+32 1.0035640312706e+12 6.7639899618121e-01
9.6640705578633e+32 1.0039491819922e+12 6.9390634874231e-01
9.6996431325431e+32 1.0043354799353e+12 7.1127466663811e-01
9.7331808683817e+32 1.0047157490840e+12 7.2240262659001e-01
9.7683434077279e+32 1.0050853010883e+12 7.4235573340017e-01
9.8020836451581e+32 1.0054470543094e+12 7.5801310334685e-01
9.8375729142745e+32 1.0058042198442e+12 7.6704518072900e-01
9.8712066996941e+32 1.0061560102818e+12 7.7844060149351e-01
9.9068798592772e+32 1.0065040984626e+12 7.8593767707758e-01
9.9423441435310e+32 1.0068570035798e+12 7.9705533378380e-01
9.9760319408903e+32 1.0071951289736e+12 8.0818161010573e-01
1.0011611390574e+33 1.0075293548499e+12 8.1681605990232e-01
